Time,Temperature,Change in Length
370.8261719,385.7984314,43.73587036
371.8516846,386.8473206,43.90502167
372.8768921,387.9503174,44.06325531
373.9010925,388.9667358,44.17238617
374.9263916,390.0547485,44.3278923
375.9514465,390.9334412,44.45611954
376.9762573,392.0846252,44.58161545
378.001709,392.9277344,44.72348404
379.0262146,393.9587097,44.84079361
380.0515747,395.080719,44.97993469
381.0762024,396.0196228,45.14908218
382.101593,397.1945496,45.29367828
383.1261597,398.1744385,45.41917419
384.1511536,399.0289612,45.59923553
385.1764526,400.1782227,45.71382141
386.2012634,401.1017151,45.80657959
387.2262573,402.1517639,45.96481705
388.2512207,403.2111511,46.08758545
389.2765503,404.2766419,46.24582291
390.3014526,405.2513733,46.37677383
391.326294,406.4086609,46.50772858
392.3514404,407.3182678,46.64959717
393.376709,408.3129883,46.81328964
394.4016724,409.4738464,46.93605804
395.4259949,410.3786926,47.08065414
396.4517822,411.3800659,47.26071548
397.4761658,412.4866638,47.32891846
398.5018616,413.4711914,47.50079727
399.5263672,414.5750122,47.64812088
400.5519104,415.5762024,47.73815155
401.5764465,416.5248413,47.91002655
402.6011353,417.5061035,48.04098129
403.6263428,418.5803528,48.16920853
404.6520081,419.6266785,48.33835602
405.6769714,420.61203,48.45021057
406.7018127,421.7930908,48.6275444
407.7268982,422.7048035,48.7475853
408.7520142,423.6994629,48.84852982
409.7763367,424.846344,48.99039841
410.8009338,425.6994934,49.14317703
411.8267212,426.8389893,49.23866272
412.8511047,427.8800659,49.42963791
413.8765259,428.7418823,49.53603745
414.9011231,429.8018799,49.64789581
415.927002,430.9087219,49.82522964
416.9515991,431.8614502,49.99710464
417.9769898,433.1329346,50.09804916
419.0012512,433.9831238,50.19353485
420.0264587,434.9180298,50.28629303
421.052063,436.0278626,50.45817184
422.0765991,437.1819458,50.6436882
423.1009827,438.0290527,50.82920837
424.1264038,439.2154236,50.96561813
425.1511231,440.1139526,51.0529213
426.1768189,441.2109985,51.21388626
427.2014465,442.0580444,51.29300308
428.2269287,443.2336121,51.45396805
429.2509766,444.2551575,51.56309509
430.2762451,445.2285461,51.68040848
431.3016357,446.2626038,51.90957642
432.3261719,447.3945618,52.02961731
433.3511963,448.3285217,52.16057205
434.3761597,449.3694458,52.27515793
435.4013672,450.462677,52.47158813
436.4268494,451.4857788,52.62163925
437.451416,452.2864075,52.76350784
438.4759827,453.5352173,52.88627625
439.5019531,454.3371582,52.97903442
440.5263977,455.5149536,53.22184372
441.552002,456.5302429,53.23548508
442.5763245,457.7514343,53.42918777
443.6009216,458.6599426,53.6037941
444.6262817,459.5143127,53.60106659
445.6517944,460.6135864,53.81113815
446.6762085,461.7004089,53.96118927
447.7018433,462.7251587,54.06758881
448.7262268,463.6792603,54.34313583
449.751648,464.6753845,54.39497375
450.7761841,465.767334,54.50137329
451.8018799,466.8713074,54.60231781
452.8259888,467.9122009,54.75782394
453.851593,468.9117127,54.90242004
454.8768005,469.7821045,55.02791595
455.9019165,470.9966431,55.20252228
456.927002,471.9375,55.37440109
457.9510193,472.9090881,55.39895248
458.9761658,473.8592529,55.68541336
460.0010071,474.9670715,55.82455444
461.0263062,476.0635681,55.89821625
462.0516357,477.0299377,56.00734329
463.0760193,478.1012878,56.20104599
464.1015625,478.9936523,56.26652145
465.1269226,479.8977356,56.42748642
466.1513367,481.049469,56.59936523
467.1770325,482.2667542,56.74123001
468.2012024,483.2064209,56.89673996
469.2267456,484.2620544,56.93766022
470.2514648,485.2269592,57.07406998
471.2767334,486.3007507,57.28414536
472.3011169,487.3284302,57.38235855
473.326294,488.2762146,57.57060623
474.3512268,489.3161316,57.85706711
475.376709,490.4237671,57.89253235
476.4010315,491.4763794,57.97983551
477.4267883,492.4043884,58.14898682
478.4513855,493.3263245,58.32358932
479.4766541,494.4363098,58.45999908
480.5016785,495.4553528,58.56912994
481.526001,496.5265503,58.74100494
482.551239,497.5070801,58.84467697
483.5766296,498.5056763,59.01382446
484.6017456,499.5409546,59.11476898
485.6270142,500.5452881,59.27027893
486.6512756,501.576294,59.43669891
487.6769409,502.8374329,59.55946732
488.7012329,503.5580139,59.66313934
489.7270203,504.7709351,59.87321091
490.7515259,505.6112366,60.03963089
491.7760315,506.8772583,60.14603043
492.8014832,507.8500366,60.2087822
493.8265381,508.8308106,60.34246445
494.8516846,509.7079468,60.50615311
495.8763123,510.8452759,60.66984558
496.9020386,511.8342896,60.82808304
497.9262695,513.1414795,61.00541687
498.9516907,513.9549561,61.09817505
499.9762268,514.9882202,61.21548843
501.0016174,515.994751,61.40919113
502.0260925,516.9788818,61.48285294
503.0515747,518.0628052,61.59197998
504.0768127,519.1467285,61.76931381
505.1017151,520.0426025,61.89481354
506.1268005,521.2371826,62.02030945
507.1517029,522.145874,62.17581558
508.1768799,523.2974854,62.25766373
509.2016602,524.2086792,62.42681122
510.2268066,525.2456665,62.5441246
511.251709,526.3051758,62.73237228
512.2759399,527.2907105,62.79784775
513.3015747,528.1907349,62.97790909
514.3270874,529.3640137,63.07885361
515.3513794,530.4057007,63.19343948
516.3759155,531.2975464,63.37622452
517.4014282,532.4130249,63.50718307
518.4260254,533.4069214,63.63541031
519.4519043,534.3693848,63.77727509
520.4765015,535.5315552,63.88095093
521.5010376,536.3788452,64.03372955
522.5266724,537.4680176,64.1892395
523.5509033,538.4713135,64.3392868
524.5765381,539.5195923,64.42932129
525.6011353,540.7009277,64.57118225
526.626709,541.6313477,64.69940948
527.651062,542.5062866,64.87674713
528.6762085,543.75354,65.01042938
529.7015381,544.6828613,65.14683533
530.7263184,545.7444458,65.31325531
531.7510376,546.7966919,65.40601349
532.7765503,547.8276978,65.5506134
533.802002,548.9238892,65.64610291
534.826294,549.847168,65.83707428
535.8519287,550.8597412,65.95438385
536.8762207,551.7653198,66.1317215
537.9019165,552.8429565,66.20265198
538.9265747,553.8939209,66.40180969
539.9520874,554.9280396,66.48092651
540.9762573,555.8953247,66.62007141
542.0014648,557.019104,66.75920868
543.0267334,558.0048828,66.89289093
544.0517578,559.1087647,67.06203461
545.0761108,560.0565186,67.1275177
546.1019898,561.0333252,67.27484131
547.1262817,562.1043701,67.42761993
548.1516724,563.1049805,67.5449295
549.1760864,564.2470703,67.66770172
550.2020874,565.1290283,67.79319763
551.2263794,566.2757568,67.92414856
552.2518921,567.2127686,68.0305481
553.2764893,568.2590332,68.25426483
554.3018799,569.3475952,68.32247162
555.3264771,570.3932495,68.46160889
556.3509522,571.3778687,68.63348389
557.376648,572.3818359,68.72351837
558.4019775,573.3939209,68.84628296
559.4264526,574.2814941,69.00724792
560.4519043,575.3336792,69.10546112
561.4765015,576.6691895,69.21459198
562.5020752,577.5310669,69.37555695
563.5263672,578.6445313,69.51197052
564.5512695,579.5325317,69.63201141
565.5767212,580.5027466,69.72203827
566.6016235,581.7039185,69.89937592
567.6265259,582.5710449,70.05487823
568.6520386,583.5321045,70.12308502
569.6765137,584.7410278,70.33042908
570.7009888,585.7753296,70.42046356
571.7266846,586.7444458,70.54050446
572.7510986,587.5869751,70.62779999
573.7769775,588.6239014,70.85697174
574.8016357,589.8769531,70.9442749
575.8262329,590.8229981,71.0643158
576.8519898,591.8753052,71.15161896
577.8764648,592.9352417,71.3316803
578.9020386,593.9261475,71.41898346
579.9265137,594.9927368,71.56085205
580.9509277,595.9337158,71.66179657
581.9765625,596.8231201,71.79547119
583.0011597,598.0129395,71.96735382
584.0263672,599.0734253,72.06829071
585.0517578,600.0697632,72.13104248
586.0759277,601.0578613,72.3056488
587.1012573,602.3221436,72.44206238
588.1264648,603.1594849,72.57846832
589.1516113,603.9938355,72.65213776
590.1768799,605.2491455,72.83219147
591.2019043,606.2076416,72.938591
592.2269287,607.2098999,73.06409454
593.2514038,608.3787231,73.20869446
594.2762451,609.3128662,73.33691406
595.302063,610.2667236,73.41603851
596.3261108,611.3848877,73.57426453
597.3515625,612.3110962,73.68885803
598.3768921,613.4213867,73.77888489
599.4014282,614.4562378,73.89346313
600.4268189,615.3556519,73.99441528
601.4516602,616.447876,74.12536621
602.4758911,617.4872437,74.25904846
603.5012817,618.3981934,74.40090942
604.5269165,619.4644775,74.51004028
605.5514526,620.5578003,74.60006714
606.5759888,621.5169678,74.71738434
607.6015625,622.6170044,74.90562439
608.6260986,623.5568237,74.95201111
609.6518555,624.4923096,75.05295563
610.6763916,625.6547852,75.18936157
611.7011719,626.6480713,75.31213379
612.7265625,627.6774902,75.4185257
613.7512817,628.7781982,75.51129913
614.7758789,629.7615967,75.65588379
615.8016357,630.9348755,75.76773834
616.8261719,631.842041,75.92871094
617.8517456,632.7896118,76.04875183
618.87677,633.7629395,76.1115036
619.9019775,634.9499512,76.25881195
620.9267578,635.8797607,76.40615082
621.9520874,636.9337769,76.49071503
622.9763184,637.9702759,76.63803864
624.001709,638.9064331,76.75807953
625.026001,640.0321045,76.82627869
626.0518799,641.0489502,76.95178986
627.0770264,642.0648804,77.06364441
628.1009522,643.1591797,77.23278809
629.126709,644.1227417,77.27098846
630.1512451,645.2111816,77.38011169
631.1769409,646.0794067,77.55199432
632.2019653,647.2387695,77.63656616
633.2262573,648.2427368,77.71841431
634.2520142,649.2028198,77.86027527
635.2766724,650.2954102,77.98031616
636.3015137,651.3169556,78.16311646
637.3259888,652.3248291,78.29406738
638.3516235,653.335022,78.38954926
639.37677,654.5471191,78.47685242
640.4013062,655.378418,78.60507202
641.4265747,656.4052124,78.72784424
642.4519653,657.4255371,78.84243011
643.4764404,658.4719238,78.95428467
644.5009155,659.5716553,79.0825119
645.5266724,660.6016846,79.23257446
646.5511475,661.5578003,79.31168365
647.5767822,662.4761353,79.44809723
648.6019287,663.5807495,79.65270233
649.6268921,664.6881104,79.77001953
650.6509399,665.6828613,79.77001953
651.6762085,666.612854,79.92279816
652.701416,667.7053223,80.04284668
653.7265015,668.7000122,80.15742493
654.7518311,669.6958618,80.22836304
655.776001,670.7662964,80.389328
656.8015747,671.8061523,80.51754761
657.8260498,672.7528076,80.6375885
658.8515625,673.9095459,80.74671936
659.8770752,674.8574219,80.97862244
660.9013672,675.9754639,81.01136017
661.9262085,676.923584,81.14503479
662.9509277,677.9134522,81.19960022
663.9760132,679.0681152,81.34966278
665.0010376,680.0080566,81.50788116
666.0259399,681.1035156,81.61701202
667.0519409,682.0770874,81.70704651
668.0766602,683.0239258,81.85437012
669.1020508,684.1801758,81.93348694
670.1262207,685.2722168,82.06990814
671.1513672,686.1929932,82.16265106
672.1769409,687.3095703,82.28269196
673.2014771,688.164917,82.36999512
674.2269287,689.3044434,82.49550629
675.2509155,690.2194824,82.58825684
676.2769775,691.2647705,82.7301178
677.3013306,692.1973267,82.89381409
678.3260498,693.4799805,83.038414
679.3513794,694.1915283,83.14480591
680.376709,695.3792114,83.23757935
681.4019775,696.4455566,83.40944672
682.4260254,697.4042358,83.49129486
683.451416,698.4375,83.75048065
684.4768066,699.4419556,83.88415527
685.5020142,700.5413818,83.9196167
686.5263062,701.6312256,84.15425873
687.5517578,702.4614258,84.14878845
688.576294,703.5477905,84.30976105
689.6020508,704.5718994,84.41069794
690.6265259,705.5316162,84.60986328
691.6514893,706.5505981,84.67259979
692.6768189,707.644165,84.83357239
693.7011719,708.7200928,84.89359283
694.7269898,709.8534546,85.06819916
695.7513428,710.6622925,85.15823364
696.7769165,711.7265625,85.34375
697.8013916,712.8363648,85.40649414
698.8266602,713.7785645,85.49106598
699.8508911,714.7022095,85.63021088
700.8764648,715.9172363,85.75025177
701.9008789,716.9260864,85.859375
702.9261475,717.9854736,85.97941589
703.9515381,719.0495606,86.17584991
704.9758911,719.9355469,86.18675995
706.0013428,720.9953613,86.36408997
707.0267944,721.8884277,86.50868988
708.0510254,723.1177979,86.56598663
709.0765381,724.0566406,86.71603394
710.1017456,725.0600586,86.909729
711.1259155,726.1467896,86.92064667
712.1511841,727.0830689,87.03250885
713.1768799,728.1602783,87.19619751
714.201416,729.2761231,87.36807251
715.2259522,730.173523,87.42810059
716.2514648,731.1986084,87.55358887
717.2769165,732.307251,87.64362335
718.3015137,733.3817749,87.79094696
719.3261108,734.2910767,87.95464325
720.3518677,735.5116577,88.20835876
721.3763428,736.4555054,88.28748322
722.4020386,737.4882202,88.38842773
723.4263916,738.4935913,88.42935181
724.4518433,739.4421387,88.48664856
725.4761963,740.5408936,88.51665497
726.5009155,741.4387207,88.56575775
727.5267944,742.383606,88.62032318
728.5514526,743.543396,88.8167572
729.5761719,744.4846802,88.95861816
730.6017456,745.7123413,89.19597626
731.6262207,746.659729,89.29145813
732.6517334,747.7837524,89.35420227
733.6759644,748.6662598,89.47698212
734.7019043,749.7183838,89.62702942
735.7262573,750.7489624,89.73070526
736.7513428,751.6513062,89.86438751
737.7770386,752.7138672,90.00353241
738.8012695,753.8168945,90.15084839
739.8269043,754.8110352,90.21086884
740.8511353,755.956543,90.3718338
741.8759766,756.9057007,90.51915741
742.9011231,757.9381104,90.65283966
743.9259033,758.8551025,90.76467896
744.9509277,759.9721069,90.9311142
745.9767456,760.8483276,91.05115509
747.0010986,761.9450073,91.16847992
748.0263672,763.019104,91.33216095
749.0512085,764.0128784,91.4440155
750.0770264,765.0842896,91.60498047
751.1016235,765.9702148,91.76321411
752.1270142,767.18573,91.89417267
753.1515503,768.2025757,91.98693848
754.1768799,769.2005615,92.12878418
755.2010498,770.1524048,92.28703308
756.2260132,771.1303711,92.45616913
757.2511597,772.3374634,92.58986664
758.2761841,773.3078613,92.71263123
759.3009644,774.3710938,92.78902435
760.3267822,775.3192139,92.97180939
761.3512573,776.3157959,93.06729126
762.3770142,777.3804932,93.24191284
763.4011231,778.4830933,93.42469025
764.4269409,779.4570313,93.52836609
765.4514771,780.4065552,93.70297241
766.4760742,781.4140625,93.81482697
767.5014038,782.5928955,93.95941925
768.5258789,783.4981079,94.08764648
769.5515137,784.4716187,94.21587372
770.5760498,785.6867065,94.34682465
771.6013794,786.7293091,94.5541687
772.6269531,787.7058716,94.66056061
773.6519165,788.6582031,94.81062317
774.6766357,789.6065674,94.98795319
775.7008667,790.784729,95.05615997
776.7265625,791.8924561,95.26895905
777.7509766,792.6433106,95.42992401
778.7766724,793.7091065,95.54450989
779.8015747,794.7473755,95.73548126
780.8265991,795.7525024,95.84461212
781.8517456,796.8685913,96.00284576
782.8768921,797.8418579,96.19109344
783.9012451,799.078125,96.27568054
784.9265747,799.9307861,96.48574066
785.9517212,800.9796753,96.55121613
786.9767456,802.0592041,96.74765015
788.0014038,803.0101929,96.90859985
789.0259399,803.9832153,97.11050415
790.0513916,805.0324097,97.19779968
791.0767822,806.0685425,97.31784058
792.1013794,807.210022,97.55519867
793.126648,808.1331787,97.60430908
794.1512451,809.265564,97.77073669
795.1765747,810.2427368,98.00807953
796.2009888,811.1221924,98.13903046
797.2267456,812.239502,98.28908539
798.2510376,813.3234253,98.29727173
799.2764282,814.241272,98.49098206
800.3016357,815.216919,98.6601181
801.3266602,816.331604,98.80743408
802.3510742,817.2303467,98.93294525
803.3763428,818.2375488,99.08844757
804.4015503,819.4205933,99.27124023
805.4266357,820.4276733,99.40492249
806.4517212,821.5239868,99.59589386
807.4758911,822.5916748,99.75140381
808.501709,823.5368652,99.8714447
809.5262451,824.5241699,100.0678787
810.5517578,825.5067139,100.1306229
811.576294,826.5644531,100.2888641
812.6017456,827.6934204,100.4798355
813.6259155,828.7703857,100.5998764
814.6514893,829.6899414,100.7444687
815.677063,830.6655884,100.9490891
816.7016602,831.6507568,101.1045914
817.7267456,832.7915039,101.1373291
818.7515869,833.7292481,101.3746872
819.776001,834.8656616,101.3746872
820.8013306,835.8574829,101.459259
821.8269653,836.7506104,101.281929
822.8511963,837.779541,100.9818268
823.8764648,839.0135498,100.4880295
824.9008789,839.9520264,99.74321747
825.9266968,840.8740234,98.75286865
826.9511719,841.840271,97.51700592
827.9769287,842.9208984,96.06559753
829.0010376,844.0136108,94.40684509
830.0264893,845.0552979,92.69626617
831.0517578,846.0890503,90.82743835
832.0760498,847.0842896,89.0841217
833.1014404,848.1641846,87.46628571
834.1259155,849.2351074,85.93031311
835.1514893,850.1342163,84.60168457
836.177063,851.1593628,83.35488892
837.201355,852.1889038,82.40820313
838.2265625,853.2736816,81.48061371
839.2509766,854.2488403,80.86676025
840.276001,855.3701782,80.26382446
841.302002,856.2045288,79.73455811
842.3261719,857.1538696,79.3717041
843.3509522,858.3549805,79.03067017
844.3761597,859.3480225,78.82332611
845.4017334,860.3377686,78.68146515
846.4259033,861.428772,78.57506561
847.451355,862.3956299,78.44684601
848.4766235,863.4556885,78.41955566
849.5018921,864.4799805,78.4713974
850.5270386,865.6112061,78.50685883
851.5509644,866.5499878,78.51232147
852.5765991,867.626648,78.63236237
853.6019898,868.5200195,78.82332611
854.6262207,869.5705566,78.86698151
855.6508789,870.7401733,78.97611237
856.6763306,871.7205811,79.11797333
857.7019043,872.8060913,79.33896637
858.7261963,873.7540894,79.48628998
859.75177,874.6468506,79.64452362
860.776062,875.8412476,79.77274323
861.8009644,876.8873291,79.93643951
862.8267822,877.8319092,80.1546936
863.8511353,878.9551392,80.40296936
864.876709,879.9755249,80.58029175
865.9008789,880.8917236,80.74398804
866.9265747,881.9544678,80.98134613
867.9519043,882.9445801,81.15049744
868.9760742,883.8798218,81.32783508
870.0014648,884.9718018,81.48061371
871.0270386,885.96521,81.85164642
872.0510864,887.0197754,81.95804596
873.076294,888.1444092,82.3536377
874.1013794,889.1663818,82.45185089
875.1260376,890.0887451,82.54187775
876.1511231,891.0852051,82.89381409
877.1763916,892.1647949,83.08206177
878.2017212,893.2304688,83.35488892
879.2261963,894.3345947,83.47766113
880.251648,895.1945801,83.75592804
881.2766113,896.3128662,83.98783112
882.3012695,897.4360962,84.27701569
883.3270264,898.3729248,84.50891113
884.3511963,899.3304443,84.59894562
885.3765259,900.3061523,84.97544098
886.401001,901.4297485,85.18278503
887.4267578,902.5007324,85.36830139
888.4512329,903.3625488,85.55927277
889.4770508,904.4680786,85.87301636
890.5012207,905.6030884,86.08854675
891.5266113,906.5271606,86.31226349
892.552002,907.5383301,86.5769043
893.5765991,908.6124878,86.86063385
894.6009522,909.6283569,86.98612213
895.6270142,910.6640015,87.38445282
896.651001,911.5917358,87.46083832
897.6766968,912.666687,87.8427887
898.7015991,913.7316895,88.01192474
899.7268677,914.821106,88.3584137
900.7509766,915.7770386,88.53847504
901.7766724,916.6976929,88.76491547
902.8009644,917.7562256,89.01863861
903.8260498,918.9414673,89.14959717
904.8511963,919.8815308,89.4524231
905.8770142,920.749939,89.66249847
906.9009399,921.8898315,89.83436584
907.927063,923.0969849,90.23815155
908.9515991,924.0639648,90.42366791
909.9769898,924.9595337,90.68557739
911.0010376,926.0160523,90.86836243
912.0265503,927.0288086,91.14391327
913.0512085,928.1085205,91.38672638
914.0764771,929.1792603,91.60771179
915.1008911,930.0947876,91.79868317
916.1260986,931.1298218,92.09333038
917.1514282,932.1795654,92.40979767
918.1769409,933.1411743,92.60077667
919.2011719,934.1376953,92.81357574
920.2268677,935.2081299,93.14096069
921.2513428,936.1774902,93.34284973
922.2759399,937.2650757,93.52836609
923.3016968,938.3227539,93.74662018
924.3261108,939.2645874,94.05764008
925.3518677,940.2901001,94.28954315
926.3760986,941.3641968,94.4805069
927.4014282,942.40448,94.75333405
